Time	Position	Velocity	Acceleration
0.02	0.167133	0.02895	1.42540084877
0.04	0.167463	0.0529854166667	1.40939371142
0.06	0.167913	0.0996108333333	0.883115162037
0.08	0.172245	0.113793055556	-0.585634066358
0.1	0.174254	0.0552458333333	-1.26837943673
0.12	0.173232	0.0370222222222	-0.929378472222
0.14	0.174688	0.0544680555556	-1.91970486111
0.16	0.178032	-0.0338819444444	-2.92514660494
0.18	0.173302	-0.119516666667	-1.32471257716
0.2	0.171118	-0.105969444444	1.34099729938
0.22	0.168675	-0.0560222222222	3.56785686728
0.24	0.167445	0.0634875	4.3357195216
0.26	0.171794	0.156427777778	3.19957561728
0.28	0.175277	0.182029166667	2.31478009259
0.3	0.178465	0.226155555556	2.34453896605
0.32	0.183888	0.284316666667	2.0959992284
0.34	0.190368	0.320581944444	1.41700231481
0.36	0.197056	0.338505555556	0.799851466049
0.38	0.204038	0.346280555556	0.479101080247
0.4	0.210865	0.354195833333	0.378676697531
0.42	0.218228	0.361123611111	0.339118441358
0.44	0.225349	0.366431944444	0.376772762346
0.46	0.2328	0.3758625	0.432735339506
0.48	0.240423	0.3838	0.47943287037
0.5	0.248047	0.396094444444	0.478541666667
0.52	0.256363	0.404540277778	0.405094521605
0.54	0.264299	0.409902777778	0.419926697531
0.56	0.27258	0.422198611111	0.391400462963
0.58	0.28133	0.428059722222	0.258335262346
0.6	0.289751	0.431326388889	0.184224537037
0.62	0.298587	0.434131944444	0.187334104938
0.64	0.307163	0.435704166667	0.341277006173
0.66	0.315792	0.447377777778	0.517098765432
0.68	0.325061	0.459725	0.55044367284
0.7	0.334262	0.469370833333	0.573217592593
0.72	0.343756	0.481733333333	0.645036651235
0.74	0.35358	0.494426388889	0.729672067901
0.76	0.363491	0.5092	0.779886188272
0.78	0.373488	0.537879166667	0.269376929012
0.8	0.385755	0.532363888889	-0.691086033951
0.82	0.395717	0.487922222222	-0.641799768519
0.84	0.404242	0.486722222222	0.308927469136
0.86	0.414568	0.513890277778	0.740516975309
0.88	0.425172	0.529845833333	0.554679783951
0.9	0.436018	0.534148611111	0.358179012346
0.92	0.446483	0.538744444444	0.378485725309
0.94	0.457433	0.5489	0.439332561728
0.96	0.468435	0.559494444444	0.371277006173
0.98	0.47994	0.564691666667	0.247137345679
1	0.491046	0.567786111111	0.183287037037
1.02	0.502602	0.572218055556	0.133701774691
1.04	0.514055	0.572104166667	0.1496875
1.06	0.525421	0.5753	0.289612268519
1.08	0.536908	0.585072222222	0.37662808642
1.1	0.548898	0.592870833333	0.354922839506
1.12	0.560697	0.597636111111	0.380075231481
1.14	0.572635	0.608656944444	0.383510802469
1.16	0.585179	0.614502777778	0.335698302469
1.18	0.597273	0.6185875	0.419845679012
1.2	0.609678	0.63225	0.444944058642
1.22	0.622655	0.641356944444	0.263616898148
1.24	0.635529	0.6421	0.118202160494
1.26	0.648367	0.6413	0.182170138889
1.28	0.661015	0.647519444444	0.338476080247
1.3	0.674166	0.658397222222	0.355106095679
1.32	0.687507	0.663516666667	0.289195601852
1.34	0.700744	0.666934722222	0.336828703704
1.36	0.714016	0.676897222222	0.399274691358
1.38	0.727894	0.68455	0.40834683642
1.4	0.741443	0.691152777778	0.49450617284
1.42	0.755374	0.704429166667	0.565380015432
1.44	0.76965	0.716743055556	0.503327546296
1.46	0.784152	0.724529166667	0.390551697531
1.48	0.798568	0.733720833333	0.0658969907408
1.5	0.813572	0.738341666667	-1.16084104938
1.52	0.828248	0.7178125	-4.29049189815
1.54	0.843079	0.624354166667	-10.0331385031
1.56	0.857355	0.3246375	-15.5834066358
1.58	0.859053	-0.1114875	-15.4683989198
1.6	0.849697	-0.402076388889	-9.86447530864
1.62	0.839198	-0.499469444444	-4.00775270062
1.64	0.828542	-0.507538888889	-0.681988811728
1.66	0.818718	-0.489701388889	0.452862654321
1.68	0.809137	-0.477140277778	0.609664351852
1.7	0.799625	-0.465240277778	0.584311342593
1.72	0.790476	-0.452290277778	0.463958333333
1.74	0.781692	-0.446406944444	0.334305555556
1.76	0.772596	-0.440368055556	0.271938657407
1.78	0.764089	-0.435468055556	0.231693672839
1.8	0.755252	-0.433056944444	0.296236496914
1.82	0.746659	-0.425594444444	0.451630015432
1.84	0.738134	-0.413708333333	0.562961033951
1.86	0.730147	-0.401958333333	0.621433256173
1.88	0.722056	-0.389861111111	0.697665895062
1.9	0.714415	-0.372448611111	0.698047839506
1.92	0.707276	-0.3596875	0.602235725309
1.94	0.700121	-0.350925	0.601846064815
1.96	0.693069	-0.335776388889	0.605518904321
1.98	0.686779	-0.324315277778	0.507729552469
2	0.680161	-0.316131944444	0.430914351852
2.02	0.674079	-0.306629166667	0.351116898148
2.04	0.668067	-0.303809722222	0.364484953704
2.06	0.661812	-0.295741666667	0.534390432099
2.08	0.656043	-0.279593055556	0.589266975309
2.1	0.650793	-0.269490277778	0.529263117284
2.12	0.645301	-0.2607375	0.545063657407
2.14	0.640241	-0.247836111111	0.567212577161
2.16	0.635425	-0.236156944444	0.526446759259
2.18	0.630903	-0.228491666667	0.55533757716
2.2	0.626155	-0.215420833333	0.635999228395
2.22	0.62224	-0.200498611111	0.600160108025
2.24	0.61822	-0.189531944444	0.478589891975
2.26	0.61472	-0.181729166667	0.378194444444
2.28	0.61103	-0.177329166667	0.414292052469
2.3	0.607495	-0.167106944444	0.539606481481
2.32	0.604255	-0.153120833333	0.563040123457
2.34	0.601483	-0.143041666667	0.522804783951
2.36	0.598589	-0.134952777778	0.579859182099
2.38	0.595904	-0.120056944444	0.644803240741
2.4	0.593807	-0.105572222222	0.569938271605
2.42	0.591884	-0.0991166666667	0.562704475309
2.44	0.589649	-0.0850625	0.628879243827
2.46	0.588471	-0.0708194444444	0.565084876543
2.48	0.586946	-0.0621055555556	0.488364197531
2.5	0.585959	-0.0523388888889	0.455237268519
2.52	0.584919	-0.0456569444444	0.499201388889
2.54	0.583966	-0.0320361111111	0.537581018519
2.56	0.583723	-0.0216791666667	0.475407021605
2.58	0.583204	-0.0153986111111	0.501130401235
2.6	0.582909	-0.00166805555555	0.527696759259
2.62	0.583238	0.00825	0.455760030864
2.64	0.583342	0.0141986111111	0.46552662037
2.66	0.583602	0.0274347222222	0.446568287037
2.68	0.584572	0.0351680555556	0.308958333333
2.7	0.585162	0.0366097222222	0.298105709877
2.72	0.58582	0.0460569444444	0.337033179012
2.74	0.587085	0.05255	0.28981095679
2.76	0.58802	0.0554888888889	0.324633487654
2.78	0.589112	0.0656736111111	0.354106867284
2.8	0.590758	0.0717527777778	0.306327160494
2.82	0.592057	0.0751458333333	0.364398148148
2.84	0.593547	0.0868513888889	0.402011959877
2.86	0.595661	0.0937680555556	0.340993441358
2.88	0.597377	0.0976847222222	0.382810570988
2.9	0.599352	0.109726388889	0.398983410494
2.92	0.601916	0.116026388889	0.326157407407
2.94	0.604064	0.119619444444	0.376103395062
2.96	0.60649	0.131490277778	0.406101466049
2.98	0.609453	0.138147222222	0.343572530864
3	0.612034	0.144041666667	0.324918981482
3.02	0.61517	0.151323611111	0.301113040123
3.04	0.618168	0.155323611111	0.318516589506
3.06	0.621287	0.163473611111	0.366219135802
3.08	0.624735	0.170775	0.382000385802
3.1	0.62813	0.177929166667	0.42359375
3.12	0.631752	0.188840277778	0.415860339506
3.14	0.635789	0.195713888889	0.360864197531
3.16	0.639618	0.201002777778	0.390547839506
3.18	0.643672	0.212147222222	0.389834104938
3.2	0.648229	0.218480555556	0.315711805556
3.22	0.652474	0.222302777778	0.329438657407
3.24	0.656944	0.232454166667	0.306950231481
3.26	0.661899	0.237272222222	0.183132716049
3.28	0.66656	0.237061111111	0.167685185185
3.3	0.671221	0.242684722222	0.208557098765
3.32	0.67628	0.247727777778	0.173792438272
3.34	0.681252	0.248502777778	0.194893904321
3.36	0.686138	0.252923611111	0.320954861111
3.38	0.69125	0.262452777778	0.40353587963
3.4	0.696673	0.271318055556	0.382627314815
3.42	0.702165	0.277451388889	0.351421682099
3.44	0.707692	0.285877777778	0.301186342593
3.46	0.713704	0.290144444444	0.242673611111
3.48	0.71937	0.291834722222	0.346875
3.5	0.72514	0.303519444444	0.474436728395
3.52	0.73155	0.314226388889	0.45340470679
3.54	0.737788	0.321780555556	0.404133873457
3.56	0.744354	0.331038888889	0.323119212963
3.58	0.751163	0.334633333333	0.261072530864
3.6	0.757747	0.338156944444	0.344643132716
3.62	0.764522	0.348698611111	0.417268518519
3.64	0.771747	0.357381944444	0.376466049383
3.66	0.778851	0.364306944444	0.302145061728
3.68	0.786353	0.369426388889	0.229608410494
3.7	0.793699	0.371405555556	0.248065200617
3.72	0.801063	0.379180555556	0.281039737654
3.74	0.808929	0.384733333333	0.222322530864
3.76	0.816535	0.386922222222	0.163267746914
3.78	0.824245	0.394218055556	-0.119249614198
3.8	0.832475	0.391386111111	-0.972312885802
3.82	0.840203	0.366979166667	-2.55720486111
3.84	0.847618	0.306408333333	-4.97345100309
3.86	0.853856	0.171359722222	-7.3574845679
3.88	0.85564	-0.0208902777778	-7.97934992284
3.9	0.852487	-0.1892625	-6.41705246914
3.92	0.846804	-0.291590277778	-3.94575810185
3.94	0.839925	-0.338556944444	-1.79819637346
3.96	0.832666	-0.347819444444	-0.489126157408
3.98	0.825891	-0.345148611111	0.059816743827
4	0.818909	-0.341870833333	0.300750385802
4.02	0.812048	-0.331266666667	0.386570216049
4.04	0.805741	-0.323930555556	0.344054783951
4.06	0.79914	-0.318620833333	0.339191743827
4.08	0.792919	-0.310534722222	0.351473765432
4.1	0.786803	-0.30525	0.406473765432
4.12	0.780635	-0.296265277778	0.541026234568
4.14	0.774814	-0.281538888889	0.590557484568
4.16	0.769495	-0.270940277778	0.56515625
4.18	0.764002	-0.261265277778	0.616782407407
4.2	0.758874	-0.2452125	0.621456404321
4.22	0.754317	-0.233958333333	0.526066743827
4.24	0.749604	-0.226473611111	0.513877314815
4.26	0.745099	-0.213252777778	0.495495756173
4.28	0.741184	-0.204859722222	0.421005015432
4.3	0.736973	-0.198681944444	0.447546296296
4.32	0.733144	-0.188809722222	0.550121527778
4.34	0.729332	-0.174963888889	0.583630401235
4.36	0.726214	-0.163556944444	0.526591435185
4.38	0.722835	-0.154536111111	0.487146990741
4.4	0.719994	-0.144358333333	0.471859567901
4.42	0.717135	-0.136740277778	0.51341242284
4.44	0.714449	-0.125522222222	0.618516589506
4.46	0.711989	-0.109491666667	0.615902777778
4.48	0.710204	-0.0985583333333	0.51215470679
4.5	0.708143	-0.0918416666667	0.509864969136
4.52	0.706341	-0.0782791666667	0.517399691358
4.54	0.705111	-0.0685680555556	0.433069058642
4.56	0.703724	-0.0637027777778	0.457480709877
4.58	0.702356	-0.0509930555556	0.515358796296
4.6	0.701749	-0.0404819444444	0.477179783951
4.62	0.700848	-0.0340222222222	0.517417052469
4.64	0.70019	-0.0198458333333	0.552793209877
4.66	0.700138	-0.00930694444444	0.491662808642
4.68	0.699913	-0.00194583333333	0.503028549383
4.7	0.699965	0.00897222222222	0.583616898148
4.72	0.70019	0.0234319444444	0.578811728395
4.74	0.701004	0.0338125	0.489369212963
4.76	0.701559	0.0426	0.409502314815
4.78	0.70272	0.0502375	0.346084104938
4.8	0.703672	0.0540916666667	0.397008101852
4.82	0.704747	0.0640097222222	0.532864583333
4.84	0.706115	0.0785958333333	0.536631944444
4.86	0.708039	0.0877208333333	0.441834490741
4.88	0.709702	0.093275	0.459135802469
4.9	0.711591	0.1056625	0.504891975309
4.92	0.714016	0.115141666667	0.490511188272
4.94	0.716234	0.123475	0.534444444444
4.96	0.718781	0.138055555556	0.510719521605
4.98	0.721917	0.146234722222	0.400054012346
5	0.724741	0.150133333333	0.442322530864
5.02	0.727669	0.163568055556	0.501606867284
5.04	0.73136	0.174201388889	0.408584104938
5.06	0.734825	0.177509722222	0.407594521605
5.08	0.738255	0.188775	0.473180941358
5.1	0.742396	0.199015277778	0.446643518519
5.12	0.746312	0.206097222222	0.446705246914
5.14	0.750592	0.215020833333	0.519405864198
5.16	0.754837	0.227351388889	0.573591820988
5.18	0.759705	0.239358333333	0.556452546296
5.2	0.764418	0.250430555556	0.493661265432
5.22	0.769754	0.259963888889	0.394870756173
5.24	0.774935	0.264201388889	0.381356095679
5.26	0.780167	0.274456944444	0.410360725309
5.28	0.785972	0.282425	0.37840470679
5.3	0.791551	0.287513888889	0.427158564815
5.32	0.797303	0.299227777778	0.475520833333
5.34	0.80354	0.309823611111	0.390324074074
5.36	0.809847	0.314430555556	0.317635030864
5.38	0.816085	0.320027777778	0.326983024691
5.4	0.822547	0.329091666667	0.227355324074
5.42	0.829304	0.334781944444	-0.216136188272
5.44	0.836131	0.327830555556	-1.14980709877
5.46	0.842663	0.300531944444	-2.73620177469
5.48	0.8489	0.22865	-4.77395447531
5.5	0.852833	0.101741666667	-6.30154899691
5.52	0.853422	-0.0492277777778	-6.41223765432
5.54	0.850529	-0.182177777778	-5.03254050926
5.56	0.845089	-0.260255555556	-3.03991512346
5.58	0.839388	-0.2942875	-1.4419849537
5.6	0.833064	-0.307441666667	-0.434166666667
5.62	0.826792	-0.303368055556	0.0565451388889
5.64	0.820971	-0.299211111111	0.196819058642
5.66	0.814889	-0.296186111111	0.310488040123
5.68	0.808998	-0.287922222222	0.441726466049
5.7	0.803281	-0.275773611111	0.459286265432
5.72	0.7981	-0.268273611111	0.417567515432
5.74	0.792573	-0.26185	0.477152777778
5.76	0.787444	-0.248370833333	0.510300925926
5.78	0.782766	-0.239504166667	0.472627314815
5.8	0.777915	-0.232305555556	0.541257716049
5.82	0.773272	-0.217373611111	0.589633487654
5.84	0.769321	-0.205998611111	0.528790509259
5.86	0.765128	-0.198436111111	0.544070216049
5.88	0.761195	-0.183801388889	0.535513117284
5.9	0.757903	-0.174725	0.445133101852
5.92	0.754282	-0.168295833333	0.454334490741
5.94	0.751077	-0.1583125	0.537907021605
5.96	0.747889	-0.145423611111	0.56880787037
5.98	0.745307	-0.134161111111	0.528777006173
6	0.742535	-0.12405	0.472513503086
6.02	0.740369	-0.115283333333	0.430788966049
6.04	0.737996	-0.109026388889	0.49247492284
6.06	0.735882	-0.0971944444444	0.619158950617
6.08	0.734011	-0.0813680555556	0.626830632716
6.1	0.732763	-0.070425	0.555262345679
6.12	0.731238	-0.0617555555556	0.576745756173
6.14	0.730129	-0.0467027777778	0.573074845679
6.16	0.729506	-0.037225	0.504259259259
6.18	0.728639	-0.0278666666667	0.485287422839
6.2	0.728345	-0.0172041666667	0.44537808642
6.22	0.72805	-0.0105375	0.435951003086
6.24	0.72786	-0.00103194444444	0.479405864198
6.26	0.727981	0.00942777777778	0.492575231482
6.28	0.728258	0.0192263888889	0.490636574074
6.3	0.728778	0.0283263888889	0.519006558642
6.32	0.729367	0.0385333333333	0.602978395062
6.34	0.730199	0.0539375	0.617563657407
6.36	0.73162	0.0653611111111	0.529710648148
6.38	0.73285	0.0746680555556	0.451153549383
6.4	0.7346	0.0833972222222	0.38596257716
6.42	0.73628	0.0885513888889	0.403640046296
6.44	0.738065	0.0971972222222	0.522538580247
6.46	0.74004	0.111372222222	0.559612268519
6.48	0.742622	0.121669444444	0.497816358025
6.5	0.744926	0.130691666667	0.449812885803
6.52	0.747837	0.139647222222	0.413381558642
6.54	0.750592	0.145754166667	0.45043595679
6.56	0.753572	0.156116666667	0.547592592593
6.58	0.756742	0.170102777778	0.544716435185
6.6	0.760502	0.179525	0.471350308642
6.62	0.763985	0.1861875	0.497351466049
6.64	0.767762	0.199868055556	0.507727623457
6.66	0.772093	0.209109722222	0.418063271605
6.68	0.776234	0.214101388889	0.421898148148
6.7	0.780479	0.2256375	0.438886959877
6.72	0.785331	0.234080555556	0.373875385802
6.74	0.789957	0.238566666667	0.39575617284
6.76	0.794756	0.247683333333	0.504118441358
6.78	0.799763	0.261191666667	0.509587191358
6.8	0.805325	0.269958333333	0.420873842593
6.82	0.810575	0.277344444444	0.345829475309
6.84	0.816414	0.284175	0.256269290123
6.86	0.822045	0.286745833333	0.185129243827
6.88	0.827797	0.292068055556	0.0281520061728
6.9	0.833723	0.294763888889	-0.522546296296
6.92	0.839891	0.279955555556	-1.58464313272
6.94	0.845331	0.238109722222	-3.03487075617
6.96	0.84994	0.1628625	-4.61937692901
6.98	0.852712	0.0433069444444	-5.58169174383
7	0.851828	-0.0848305555556	-5.2331404321
7.02	0.848744	-0.183604166667	-3.88273533951
7.04	0.843841	-0.244483333333	-2.2313117284
7.06	0.838262	-0.265513888889	-0.93591242284
7.08	0.832978	-0.269369444444	-0.288597608025
7.1	0.827572	-0.272433333333	0.04
7.12	0.821941	-0.268225	0.300603780864
7.14	0.816708	-0.257894444444	0.424519675926
7.16	0.811684	-0.248841666667	0.428524305556
7.18	0.806798	-0.2415125	0.438275462963
7.2	0.801929	-0.230927777778	0.429519675926
7.22	0.797632	-0.223225	0.391412037037
7.24	0.793075	-0.2179	0.467596450617
7.26	0.788761	-0.206052777778	0.604357638889
7.28	0.784759	-0.190654166667	0.607947530864
7.3	0.781259	-0.180213888889	0.529714506173
7.32	0.777534	-0.170036111111	0.471865354938
7.34	0.774502	-0.161644444444	0.439187885802
7.36	0.771123	-0.155293055556	0.525071373457
7.38	0.768056	-0.139518055556	0.567824074074
7.4	0.765683	-0.129213888889	0.476612654321
7.42	0.763015	-0.123766666667	0.512544367284
7.44	0.760502	-0.109548611111	0.584890046296
7.46	0.7587	-0.0974791666667	0.54622492284
7.48	0.756708	-0.0893652777778	0.560985725309
7.5	0.754941	-0.0745305555556	0.550341435185
7.52	0.753866	-0.0652902777778	0.463177083333
7.54	0.752411	-0.0591694444444	0.499380787037
7.56	0.751285	-0.0449069444444	0.516415895062
7.58	0.75073	-0.0356166666667	0.429820601852
7.6	0.749968	-0.0300027777778	0.440347222222
7.62	0.749431	-0.0205486111111	0.549452160494
7.64	0.749015	-0.00581944444444	0.575617283951
7.66	0.74931	0.00500555555556	0.496766975309
7.68	0.749327	0.0111819444444	0.523462577161
7.7	0.749552	0.0252861111111	0.580169753086
7.72	0.750401	0.0371527777778	0.531302083333
7.74	0.751146	0.0449027777778	0.542675540123
7.76	0.752047	0.0584736111111	0.562241512346
7.78	0.753554	0.0691180555556	0.507378472222
7.8	0.754837	0.078525	0.454675925926
7.82	0.756673	0.0880458333333	0.374652777778
7.84	0.758475	0.0925736111111	0.352482638889
7.86	0.760329	0.0996194444444	0.443555169753
7.88	0.762373	0.110281944444	0.537534722222
7.9	0.764695	0.123472222222	0.527461419753
7.92	0.767415	0.132230555556	0.467287808642
7.94	0.769962	0.141425	0.438354552469
7.96	0.773098	0.149391666667	0.439656635802
7.98	0.775957	0.1571625	0.52580632716
8	0.779266	0.170376388889	0.599355709877
8.02	0.782749	0.18395	0.543823302469
8.04	0.786699	0.194373611111	0.391334876543
8.06	0.790702	0.196927777778	0.346244212963
8.08	0.79441	0.205673611111	0.422390046296
8.1	0.798897	0.216231944444	0.416211419753
8.12	0.803211	0.221126388889	0.453641975309
8.14	0.807543	0.234075	0.490736882716
8.16	0.812654	0.243529166667	0.405262345679
8.18	0.817367	0.249395833333	0.341655092593
8.2	0.822547	0.2578875	0.225297067901
8.22	0.827814	0.25985	0.0111304012346
8.24	0.832926	0.260568055556	-0.368451003086
8.26	0.838383	0.251084722222	-1.09330054012
8.28	0.843287	0.222351388889	-2.14264274691
8.3	0.847635	0.169606944444	-3.39545524691
8.32	0.850616	0.0853902777778	-4.48384259259
8.34	0.851569	-0.0240194444444	-4.75668209877
8.36	0.849524	-0.126197222222	-3.90769483025
8.38	0.845747	-0.188998611111	-2.53569058642
8.4	0.841485	-0.222355555556	-1.35740354938
8.42	0.836564	-0.235883333333	-0.576811342593
8.44	0.831903	-0.239290277778	-0.162816358025
8.46	0.826983	-0.240108333333	0.0868595679012
8.48	0.822218	-0.235759722222	0.291919367284
8.5	0.817488	-0.227988888889	0.451286651235
8.52	0.813	-0.215275	0.487239583333
8.54	0.808981	-0.206822222222	0.428261959877
8.56	0.804719	-0.198584722222	0.376726466049
8.58	0.801045	-0.191320833333	0.321309799383
8.6	0.797164	-0.187627777778	0.364155092593
8.62	0.793439	-0.1792	0.512789351852
8.64	0.78987	-0.165411111111	0.597494212963
8.66	0.78689	-0.153238888889	0.592445987654
8.68	0.783806	-0.143572222222	0.641793981482
8.7	0.780964	-0.126941666667	0.659768518519
8.72	0.778833	-0.114391666667	0.564851466049
8.74	0.776512	-0.106841666667	0.560231481482
8.76	0.774363	-0.0921944444444	0.563767361111
8.78	0.772925	-0.0815791666667	0.465327932099
8.8	0.771227	-0.0760680555556	0.461327160494
8.82	0.769685	-0.0633625	0.469054783951
8.84	0.768801	-0.0549305555556	0.39159529321
8.86	0.767589	-0.0504277777778	0.425106095679
8.88	0.766584	-0.0381666666667	0.475391589506
8.9	0.766168	-0.0297472222222	0.470661651235
8.92	0.765423	-0.0217125	0.556053240741
8.94	0.765128	-0.00685972222222	0.60322337963
8.96	0.765215	0.00515416666667	0.540073302469
8.98	0.765423	0.0139805555556	0.501873070988
9	0.765752	0.0231708333333	0.540596064815
9.02	0.766237	0.0368930555556	0.526957947531
9.04	0.767329	0.0462277777778	0.430474537037
9.06	0.768143	0.0529361111111	0.384315200617
9.08	0.769425	0.0601847222222	0.407212577161
9.1	0.770534	0.0684930555556	0.470339506173
9.12	0.772111	0.0794652777778	0.507081404321
9.14	0.773705	0.0903611111111	0.473726851852
9.16	0.775784	0.0990722222222	0.413568672839
9.18	0.777742	0.104559722222	0.44861882716
9.2	0.779804	0.116605555556	0.507957175926
