Time	Position	Velocity	Acceleration
0.02	0.169065	0.184683333333	-0.932923611111
0.04	0.173191	0.161729166667	-0.597903935185
0.06	0.175532	0.1516825	-0.0703194444444
0.08	0.179016	0.154420833333	0.626856481481
0.1	0.181357	0.176394444444	1.31485300926
0.12	0.185657	0.218026388889	1.43805864198
0.14	0.190425	0.244720833333	1.01614197531
0.16	0.195747	0.256858333333	0.607563657407
0.18	0.200706	0.264834722222	0.386608796296
0.2	0.206358	0.271234722222	0.268454861111
0.22	0.211663	0.273190277778	0.278559027778
0.24	0.217125	0.281588888889	0.337170138889
0.26	0.222967	0.288616666667	0.328564814815
0.28	0.228758	0.2928875	0.387224151235
0.3	0.234514	0.303801388889	0.440142746914
0.32	0.240912	0.314280555556	0.330941358025
0.34	0.247258	0.317254166667	0.214529320988
0.36	0.253603	0.320041666667	0.21837962963
0.38	0.260018	0.324356944444	0.291807484568
0.4	0.26645	0.333831944444	0.278937114198
0.42	0.27349	0.338455555556	0.138956404321
0.44	0.28013	0.336665277778	0.110547839506
0.46	0.286788	0.341330555556	0.169014274691
0.48	0.293861	0.343669444444	0.241952160494
0.5	0.300502	0.348563888889	0.410765817901
0.52	0.307593	0.362159722222	0.484357638889
0.54	0.315117	0.371077777778	0.42197337963
0.56	0.322521	0.3767625	0.437274305556
0.58	0.330028	0.388163888889	0.475408950617
0.6	0.338107	0.397265277778	0.488832947531
0.62	0.34603	0.404309722222	0.626005015432
0.64	0.354058	0.420233333333	0.768562885802
0.66	0.362519	0.4473125	0.328559027778
0.68	0.372592	0.443327777778	-0.528931327161
0.7	0.38074	0.416316666667	-0.889554398148
0.72	0.389236	0.389956944444	-0.394290123457
0.74	0.395703	0.393270833333	0.474484953704
0.76	0.404458	0.422216666667	0.753113425926
0.78	0.413023	0.434169444444	0.479575617284
0.8	0.4219	0.441061111111	0.154602623457
0.82	0.430864	0.437158333333	-0.0186188271605
0.84	0.439377	0.433988888889	0.111894290123
0.86	0.447941	0.442368055556	0.233587962963
0.88	0.457165	0.447865277778	0.172702546296
0.9	0.466007	0.447433333333	0.16728587963
0.92	0.474884	0.453531944444	0.201039737654
0.94	0.484212	0.4572875	0.171608796296
0.96	0.493245	0.458676388889	0.206055169753
0.98	0.502399	0.465995833333	0.21994212963
1	0.511987	0.469436111111	0.162054398148
1.02	0.521262	0.469705555556	0.213454861111
1.04	0.530573	0.477798611111	0.276836419753
1.06	0.540455	0.4832125	0.249008487654
1.08	0.549991	0.485451388889	0.30494212963
1.1	0.559665	0.495709722222	0.34574845679
1.12	0.569929	0.501834722222	0.287839506173
1.14	0.579829	0.504680555556	0.323493441358
1.16	0.58992	0.514883333333	0.35143904321
1.18	0.600513	0.521423611111	0.285702160494
1.2	0.610898	0.5237875	0.326622299383
1.22	0.621318	0.5322	0.451365740741
1.24	0.632085	0.544844444444	0.441834490741
1.26	0.643216	0.552977777778	0.289801311728
1.28	0.654312	0.555691666667	0.170179398148
1.3	0.665477	0.556831944444	0.191400462963
1.32	0.676522	0.560923611111	0.324988425926
1.34	0.687756	0.571804166667	0.38138117284
1.36	0.699494	0.579086111111	0.31272183642
1.38	0.711024	0.582036111111	0.328553240741
1.4	0.722622	0.591211111111	0.383614969136
1.42	0.734707	0.599041666667	0.366423611111
1.44	0.746583	0.606644444444	0.312503858025
1.46	0.759014	0.612281944444	0.228452932099
1.48	0.771185	0.613273611111	0.246790123457
1.5	0.783356	0.621688888889	0.280711805556
1.52	0.7961	0.628093055556	0.141500771605
1.54	0.808635	0.627722222222	-0.126352237654
1.56	0.821101	0.629061111111	-0.926294367284
1.58	0.833982	0.6125	-3.09697337963
1.6	0.846258	0.541154166667	-7.08668402778
1.62	0.857683	0.352573611111	-11.8318904321
1.64	0.863543	0.0148805555556	-13.6698823302
1.66	0.857631	-0.292811111111	-10.577976466
1.68	0.848442	-0.437504166667	-5.66445408951
1.7	0.838612	-0.485377777778	-2.1037191358
1.72	0.828556	-0.489672222222	-0.308526234568
1.74	0.818812	-0.479075	0.256977237654
1.76	0.809502	-0.471493055556	0.264679783951
1.78	0.800087	-0.469708333333	0.232255015432
1.8	0.790569	-0.463101388889	0.228632330247
1.82	0.781623	-0.458820833333	0.170964506173
1.84	0.77233	-0.458736111111	0.215266203704
1.86	0.763071	-0.450718055556	0.281865354938
1.88	0.75435	-0.444656944444	0.254332561728
1.9	0.745422	-0.442975	0.335630787037
1.92	0.736475	-0.434408333333	0.538969907407
1.94	0.727876	-0.418372222222	0.607336033951
1.96	0.719848	-0.406356944444	0.499608410494
1.98	0.711717	-0.398984722222	0.400314429012
2	0.70388	-0.391808333333	0.363915895062
2.02	0.696061	-0.385544444444	0.379486882716
2.04	0.688363	-0.375602777778	0.357644675926
2.06	0.681133	-0.369577777778	0.267291666667
2.08	0.673661	-0.367197222222	0.26943287037
2.1	0.666292	-0.359013888889	0.295304783951
2.12	0.659409	-0.3546	0.303049768519
2.14	0.65211	-0.349636111111	0.414824459877
2.16	0.64521	-0.336183333333	0.444259259259
2.18	0.638812	-0.328823611111	0.355109953704
2.2	0.632154	-0.324844444444	0.380943287037
2.22	0.625687	-0.315726388889	0.488665123457
2.24	0.619429	-0.3027	0.494014274691
2.26	0.61369	-0.293681944444	0.396844135802
2.28	0.607778	-0.289069444444	0.375129243827
2.3	0.601969	-0.278858333333	0.366230709877
2.32	0.596716	-0.272395833333	0.291221064815
2.34	0.591185	-0.269958333333	0.326332947531
2.36	0.585724	-0.260247222222	0.397563657407
2.38	0.580783	-0.250569444444	0.336305941358
2.4	0.575894	-0.248313888889	0.331915509259
2.42	0.570675	-0.239358333333	0.412447916667
2.44	0.566306	-0.229455555556	0.405009645062
2.46	0.561625	-0.224254166667	0.433582175926
2.48	0.557152	-0.211955555556	0.446716820988
2.5	0.553251	-0.203975	0.36231095679
2.52	0.549089	-0.199784722222	0.365628858025
2.54	0.545084	-0.189247222222	0.367513503086
2.56	0.541634	-0.18315	0.301986882716
2.58	0.537837	-0.179968055556	0.345200617284
2.6	0.534231	-0.169079166667	0.379992283951
2.62	0.53118	-0.162173611111	0.320194830247
2.64	0.527851	-0.159098611111	0.369704861111
2.66	0.524609	-0.147956944444	0.437521219136
2.68	0.521973	-0.138468055556	0.387108410494
2.7	0.519199	-0.133563888889	0.379855324074
2.72	0.516547	-0.125568055556	0.46212962963
2.74	0.514085	-0.113584722222	0.484645061728
2.76	0.512091	-0.104819444444	0.436130401235
2.78	0.509872	-0.0959819444444	0.367341820988
2.8	0.508277	-0.0890069444444	0.26534529321
2.82	0.506456	-0.0876583333333	0.275478395062
2.84	0.504653	-0.0811736111111	0.420582561728
2.86	0.503058	-0.0683861111111	0.466479552469
2.88	0.502035	-0.0597625	0.387966820988
2.9	0.500735	-0.0543458333333	0.352858796296
2.92	0.499764	-0.0457791666667	0.33215470679
2.94	0.499001	-0.0408680555556	0.321957947531
2.96	0.498134	-0.0355194444444	0.416869212963
2.98	0.497406	-0.0232638888889	0.466921296296
3	0.497267	-0.0135361111111	0.382455632716
3.02	0.497007	-0.00936666666667	0.348082561728
3.04	0.496799	-0.00195	0.407534722222
3.06	0.496851	0.00871666666667	0.402374614198
3.08	0.497267	0.0148833333333	0.361014660494
3.1	0.497406	0.0221527777778	0.355005787037
3.12	0.498134	0.0301152777778	0.310185185185
3.14	0.498723	0.0334430555556	0.310557484568
3.16	0.49933	0.0423875	0.315673225309
3.18	0.500492	0.047925	0.253607253086
3.2	0.501324	0.0507180555556	0.275760030864
3.22	0.502434	0.0572916666667	0.366255787037
3.24	0.503561	0.0661916666667	0.425260416667
3.26	0.505069	0.0762777777778	0.394724151235
3.28	0.506716	0.0817708333333	0.358518518519
3.3	0.508259	0.0900791666667	0.348520447531
3.32	0.510374	0.0963444444444	0.320135030864
3.34	0.51216	0.100754166667	0.378142361111
3.36	0.514223	0.112534722222	0.389789737654
3.38	0.516807	0.118408333333	0.311014660494
3.4	0.518974	0.123333333333	0.294537037037
3.42	0.521661	0.130873611111	0.264334490741
3.44	0.524366	0.132729166667	0.294893904321
3.46	0.526845	0.14005	0.422866512346
3.48	0.52981	0.153368055556	0.398277391975
3.5	0.533208	0.158040277778	0.285887345679
3.52	0.536173	0.160547222222	0.337777777778
3.54	0.539398	0.172266666667	0.36580632716
3.56	0.543229	0.177305555556	0.313832947531
3.58	0.546472	0.1834	0.316925154321
3.6	0.550546	0.189844444444	0.325686728395
3.62	0.554083	0.195908333333	0.358856095679
3.64	0.558313	0.204958333333	0.350462962963
3.66	0.562335	0.211227777778	0.285248842593
3.68	0.566791	0.216173611111	0.236344521605
3.7	0.571039	0.218870833333	0.269538966049
3.72	0.57546	0.225398611111	0.366664737654
3.74	0.579951	0.235968055556	0.366898148148
3.76	0.585031	0.241780555556	0.294444444444
3.78	0.589694	0.244530555556	0.338526234568
3.8	0.594584	0.255923611111	0.360104166667
3.82	0.600062	0.262233333333	0.253601466049
3.84	0.605212	0.263054166667	0.258948688272
3.86	0.610361	0.272097222222	0.281712962963
3.88	0.616186	0.277498611111	0.181803626543
3.9	0.621596	0.277473611111	0.151327160494
3.92	0.627126	0.283036111111	0.14315779321
3.94	0.633004	0.284798611111	0.0946797839507
3.96	0.638604	0.284068055556	0.170841049383
3.98	0.644221	0.2895375	0.327980324074
4	0.650064	0.300188888889	0.363966049383
4.02	0.656358	0.306370833333	0.297135416667
4.04	0.662391	0.309377777778	0.323915895062
4.06	0.668546	0.319425	0.35234375
4.08	0.675273	0.325643055556	0.302071759259
4.1	0.681654	0.328906944444	0.348086419753
4.12	0.688224	0.339880555556	0.378202160494
4.14	0.69535	0.347016666667	0.291888503086
4.16	0.702233	0.3490875	0.296838348765
4.18	0.709116	0.358409722222	0.323794367284
4.2	0.716658	0.364431944444	0.26509066358
4.22	0.723801	0.366438888889	0.305898919753
4.24	0.731101	0.376645833333	0.348250385802
4.26	0.738972	0.382944444444	0.292478780864
4.28	0.746514	0.385805555556	0.327658179012
4.3	0.754194	0.396479166667	0.337924382716
4.32	0.762482	0.402458333333	0.233045910494
4.34	0.77044	0.403102777778	0.235304783951
4.36	0.77845	0.409601388889	0.315339506173
4.38	0.78672	0.4197375	0.231934799383
4.4	0.795458	0.4211625	0.0469733796296
4.42	0.803659	0.417698611111	0.0118557098765
4.44	0.811964	0.421613888889	-0.0152854938272
4.46	0.820684	0.419236111111	-0.161865354938
4.48	0.828747	0.415579166667	-0.463202160494
4.5	0.83719	0.411644444444	-1.45283950617
4.52	0.845668	0.377094444444	-3.4896875
4.54	0.85321	0.286076388889	-6.16730902778
4.56	0.858481	0.121411111111	-8.22691550926
4.58	0.85881	-0.0807222222222	-8.24245949074
4.6	0.854545	-0.246633333333	-6.1928587963
4.62	0.847575	-0.339363888889	-3.44008873457
4.64	0.839877	-0.368755555556	-1.37179205247
4.66	0.832561	-0.374506944444	-0.354540895062
4.68	0.824898	-0.374998611111	0.0878240740741
4.7	0.817373	-0.367029166667	0.22824845679
4.72	0.810317	-0.362719444444	0.192743055556
4.74	0.802948	-0.361538888889	0.229087577161
4.76	0.795684	-0.353833333333	0.279421296296
4.78	0.78887	-0.348640277778	0.27084683642
4.8	0.781796	-0.345197222222	0.346417824074
4.82	0.774878	-0.3345	0.409953703704
4.84	0.768498	-0.326551388889	0.385314429012
4.86	0.761892	-0.321226388889	0.433854166667
4.88	0.75546	-0.308720833333	0.453522376543
4.9	0.749635	-0.300105555556	0.35662808642
4.92	0.743584	-0.296480555556	0.341182484568
4.94	0.737654	-0.288263888889	0.397793209877
4.96	0.73202	-0.278829166667	0.392062114198
4.98	0.726575	-0.271825	0.350802469136
5	0.721166	-0.266013888889	0.345783179012
5.02	0.715843	-0.257170833333	0.315052083333
5.04	0.710989	-0.252519444444	0.262405478395
5.06	0.705805	-0.250116666667	0.353350694444
5.08	0.70076	-0.238566666667	0.456433256173
5.1	0.696321	-0.228722222222	0.430887345679
5.12	0.691709	-0.222522222222	0.435183256173
5.14	0.687271	-0.211080555556	0.424054783951
5.16	0.68337	-0.203788888889	0.348653549383
5.18	0.679209	-0.199893055556	0.378285108025
5.2	0.675169	-0.188334722222	0.390943287037
5.22	0.671771	-0.180941666667	0.282301311728
5.24	0.668095	-0.179661111111	0.285165895062
5.26	0.664437	-0.172547222222	0.408630401235
5.28	0.661074	-0.160631944444	0.432309027778
5.3	0.658144	-0.153231944444	0.369799382716
5.32	0.655005	-0.1485125	0.401423611111
5.34	0.652023	-0.1369625	0.429411651235
5.36	0.649631	-0.129234722222	0.379292052469
5.38	0.646926	-0.124138888889	0.413991126543
5.4	0.644481	-0.112234722222	0.427374614198
5.42	0.64254	-0.1043875	0.339066358025
5.44	0.640424	-0.101163888889	0.344689429012
5.46	0.638309	-0.0912277777778	0.378705632716
5.48	0.636836	-0.0834777777778	0.321512345679
5.5	0.635102	-0.0806708333333	0.351550925926
5.52	0.633403	-0.0698916666667	0.393589891975
5.54	0.632362	-0.0617277777778	0.316014660494
5.56	0.631079	-0.0588222222222	0.307505787037
5.58	0.629918	-0.0522972222222	0.411655092593
5.6	0.62886	-0.0406930555556	0.455812114198
5.62	0.628375	-0.0317375	0.402191358025
5.64	0.627681	-0.0266333333333	0.416722608025
5.66	0.627144	-0.0151472222222	0.430895061728
5.68	0.627161	-0.00723194444445	0.355727237654
5.7	0.626918	-0.00195277777778	0.312627314815
5.72	0.627005	0.00558472222222	0.25481095679
5.74	0.62723	0.00898194444444	0.188775077161
5.76	0.627421	0.0107208333333	0.238152006173
5.78	0.627577	0.0160458333333	0.392440200617
5.8	0.627907	0.0284652777778	0.456886574074
5.82	0.628808	0.0373	0.378396990741
5.84	0.62945	0.0434875	0.289847608025
5.86	0.630559	0.0483527777778	0.233821373457
5.88	0.631444	0.0510458333333	0.269224537037
5.9	0.632518	0.0575194444444	0.371309799383
5.92	0.633645	0.0681333333333	0.375565200617
5.94	0.635345	0.0747041666667	0.279947916667
5.96	0.636697	0.0779888888889	0.237444058642
5.98	0.638413	0.0832680555556	0.24678433642
6	0.640078	0.0866625	0.319739583333
6.02	0.641759	0.0958166666667	0.402110339506
6.04	0.643927	0.104418055556	0.401211419753
6.06	0.645938	0.112691666667	0.358018904321
6.08	0.648469	0.1194375	0.282654320988
6.1	0.65081	0.121940277778	0.293886959877
6.12	0.653185	0.130890277778	0.32908757716
6.14	0.656132	0.136673611111	0.307822145062
6.16	0.658698	0.140995833333	0.369791666667
6.18	0.661594	0.152359722222	0.385486111111
6.2	0.664905	0.158861111111	0.301840277778
6.22	0.668009	0.163102777778	0.269195601852
6.24	0.67139	0.168365277778	0.287665895062
6.26	0.674701	0.175202777778	0.297706404321
6.28	0.678446	0.18075	0.294918981481
6.3	0.681966	0.1849125	0.375964506173
6.32	0.685676	0.196318055556	0.430825617284
6.34	0.689906	0.204198611111	0.38949845679
6.36	0.693842	0.211959722222	0.334079861111
6.38	0.698402	0.218193055556	0.256822916667
6.4	0.702667	0.220572222222	0.260609567901
6.42	0.70714	0.2267375	0.33871720679
6.44	0.711648	0.236101388889	0.334417438272
6.46	0.716658	0.2425125	0.239535108025
6.48	0.721496	0.243115277778	0.253451003086
6.5	0.726246	0.249369444444	0.405499614198
6.52	0.731326	0.262016666667	0.446010802469
6.54	0.736857	0.269763888889	0.359646990741
6.56	0.742127	0.276194444444	0.260046296296
6.58	0.747918	0.280852777778	0.144066358025
6.6	0.753501	0.280011111111	0.127646604938
6.62	0.759032	0.282819444444	0.242372685185
6.64	0.764649	0.292227777778	0.254847608025
6.66	0.770873	0.295869444444	0.139409722222
6.68	0.77656	0.295702777778	0.0957658179012
6.7	0.782576	0.299818055556	0.0588483796297
6.72	0.788696	0.298115277778	0.0454552469136
6.74	0.79447	0.298570833333	0.166689814815
6.76	0.800503	0.304781944444	0.284448302469
6.78	0.806641	0.312584722222	0.278416280864
6.8	0.813073	0.317419444444	0.177054398148
6.82	0.819349	0.320583333333	0.0116068672839
6.84	0.82599	0.3188	-0.220738811728
6.86	0.832179	0.312008333333	-0.522457561728
6.88	0.838456	0.302443055556	-1.10528549383
6.9	0.844558	0.275756944444	-2.13446952161
6.92	0.849898	0.222941666667	-3.48443094136
6.94	0.853973	0.138615277778	-4.85494598765
6.96	0.856175	0.0176736111111	-5.54115933642
6.98	0.854805	-0.108198611111	-4.91139467593
7	0.851025	-0.193838888889	-3.43283371914
7.02	0.846414	-0.242211111111	-2.00338155864
7.04	0.841022	-0.267170833333	-0.93255787037
7.06	0.835387	-0.272379166667	-0.297297453704
7.08	0.830064	-0.272231944444	-0.0466242283951
7.1	0.824568	-0.272948611111	0.0848244598765
7.12	0.819072	-0.270130555556	0.228211805556
7.14	0.813628	-0.261776388889	0.280619212963
7.16	0.808704	-0.256818055556	0.245619212963
7.18	0.803433	-0.254858333333	0.321427469136
7.2	0.798302	-0.244269444444	0.40716242284
7.22	0.793724	-0.235948611111	0.381722608025
7.24	0.788904	-0.229123611111	0.35180941358
7.26	0.784535	-0.221890277778	0.324303626543
7.28	0.780097	-0.217194444444	0.350395447531
7.3	0.77578	-0.209305555556	0.430407021605
7.32	0.771636	-0.1980625	0.425669367284
7.34	0.767943	-0.190109722222	0.324222608025
7.36	0.764129	-0.186759722222	0.285503472222
7.38	0.760367	-0.179475	0.290925925926
7.4	0.75702	-0.174970833333	0.308288966049
7.42	0.753345	-0.168730555556	0.395285493827
7.44	0.750189	-0.158833333333	0.457326388889
7.46	0.746982	-0.148620833333	0.435194830247
7.48	0.744277	-0.139954166667	0.351834490741
7.5	0.741503	-0.1362375	0.344324845679
7.52	0.738747	-0.129022222222	0.459008487654
7.54	0.736215	-0.116293055556	0.505958719136
7.56	0.734169	-0.106290277778	0.432804783951
7.58	0.732002	-0.0986263888889	0.328763503086
7.6	0.730251	-0.0930847222222	0.23481095679
7.62	0.728379	-0.0914305555556	0.25253279321
7.64	0.726506	-0.08575	0.388643904321
7.66	0.72479	-0.0736125	0.436143904321
7.68	0.72368	-0.0655208333333	0.365603780864
7.7	0.722276	-0.0618569444444	0.396516203704
7.72	0.720993	-0.0498444444444	0.428468364198
7.74	0.720369	-0.0417125	0.341440972222
7.76	0.719415	-0.0370458333333	0.289155092593
7.78	0.71886	-0.0318402777778	0.308356481482
7.8	0.718097	-0.0249208333333	0.356599151235
7.82	0.717872	-0.0172861111111	0.39677662037
7.84	0.717421	-0.0102319444444	0.471738040123
7.86	0.7173	0.00360972222222	0.449448302469
7.88	0.717733	0.0100833333333	0.319481095679
7.9	0.717733	0.0147361111111	0.259853395062
7.92	0.718305	0.0197777777778	0.241076388889
7.94	0.718583	0.0225736111111	0.305700231481
7.96	0.719034	0.0327208333333	0.339133873457
7.98	0.719987	0.0387347222222	0.266232638889
8	0.720663	0.0417041666667	0.265391589506
8.02	0.721582	0.0476833333333	0.336132330247
8.04	0.722536	0.0552861111111	0.407696759259
8.06	0.723749	0.0654222222222	0.412029320988
8.08	0.725223	0.0724361111111	0.371741898148
8.1	0.72661	0.0804305555556	0.322349537037
8.12	0.7285	0.0857736111111	0.258877314815
8.14	0.730095	0.0888	0.279585262346
8.16	0.731915	0.0972069444444	0.295028935185
8.18	0.734065	0.102176388889	0.259292052469
8.2	0.736059	0.1056	0.307339891975
8.22	0.738192	0.112984722222	0.408582175926
8.24	0.74048	0.124372222222	0.412011959877
8.26	0.743289	0.131313888889	0.331865354938
8.28	0.745803	0.135023611111	0.344583333333
8.3	0.748508	0.145591666667	0.337615740741
8.32	0.75175	0.150859722222	0.24803433642
8.34	0.754628	0.153122222222	0.259110725309
8.36	0.757766	0.159505555556	0.338620756173
8.38	0.760939	0.168677777778	0.346720679012
8.4	0.764614	0.1745125	0.305416666667
8.42	0.767961	0.178440277778	0.350987654321
8.44	0.771567	0.189481944444	0.360204475309
8.46	0.775676	0.195230555556	0.274890046296
8.48	0.779455	0.197833333333	0.287231867284
8.5	0.783408	0.20695	0.293722993827
8.52	0.787847	0.211741666667	0.224540895062
8.54	0.791973	0.212993055556	0.268582175926
8.56	0.796152	0.2225	0.307280092593
8.58	0.800954	0.2285125	0.225453317901
8.6	0.805427	0.2297	0.217575231481
8.62	0.810039	0.234641666667	0.310634645062
8.64	0.814703	0.244322222222	0.314257330247
8.66	0.819939	0.249018055556	0.223555169753
8.68	0.824655	0.253040277778	0.11871720679
8.7	0.830082	0.255369444444	-0.0768634259259
8.72	0.835023	0.250013888889	-0.327303240741
8.74	0.839981	0.245880555556	-0.805983796296
8.76	0.845131	0.225630555556	-1.69446566358
8.78	0.84943	0.180988888889	-2.75756365741
8.8	0.852673	0.115323611111	-3.7756095679
8.82	0.854545	0.02345	-4.36357638889
8.84	0.853765	-0.0753777777778	-4.0795775463
8.86	0.851077	-0.151683333333	-3.12195023148
8.88	0.847246	-0.201815277778	-2.00127700617
8.9	0.842651	-0.228690277778	-1.02851658951
8.92	0.837814	-0.238122222222	-0.352494212963
8.94	0.832925	-0.236173611111	-0.0396450617284
8.96	0.828452	-0.235676388889	0.0395987654321
8.98	0.823545	-0.236545833333	0.153861882716
9	0.818777	-0.228805555556	0.227476851852
9.02	0.814495	-0.224779166667	0.197021604938
9.04	0.809866	-0.2233625	0.262127700617
9.06	0.805393	-0.215231944444	0.365802469136
9.08	0.801266	-0.20675	0.390351080247
9.1	0.797175	-0.199905555556	0.409903549383
9.12	0.79317	-0.189561111111	0.387555941358
9.14	0.789685	-0.183068055556	0.315586419753
9.16	0.785922	-0.179423611111	0.343225308642
9.18	0.782351	-0.169708333333	0.383244598765
